ECG_DATA

-610.870239257812
-610.772705078125
-601.116577148438
-598.288024902344
-605.213134765625
-602.287048339844
-578.00048828125
-553.226257324219
-553.031188964844
-558.590759277344
-543.472595214844
-527.769287109375
-545.520874023438
-553.811462402344
-541.131713867188
-540.64404296875
-558.298156738281
-582.487182617187
-593.801391601562
-598.873291015625
-615.942138671875
-628.914489746094
-623.452453613281
-617.015014648438
-632.81591796875
-647.93408203125
-644.227661132813
-638.37548828125
-645.203063964844
-645.983337402344
-630.572570800781
-611.845581054687
-611.35791015625
-610.480102539063
-599.068359375
-591.948181152344
-622.281982421875
-658.370422363281
-635.742004394531
-530.500305175781
-305.776489257812
41.2578811645508
397.948364257812
674.561462402344
519.088500976562
72.5670547485352
-373.564270019531
-657.882751464844
-762.149108886719
-741.081298828125
-678.170349121094
-626.768676757812
-608.334289550781
-590.777770996094
-566.588745117188
-556.737548828125
-567.271484375
-572.538452148438
-561.809448242188
-557.810485839844
-567.66162109375
-570.490173339844
-558.883361816406
-554.104064941406
-564.052795410156
-563.077392578125
-548.349426269531
-537.522888183594
-546.301147460937
-547.471618652344
-530.207641601562
-518.308227539063
-513.138793945313
-503.385162353516
-482.122253417969
-458.908599853516
-448.569732666016
-435.207244873047
-407.604461669922
-376.490356445313
-352.398864746094
-315.627655029297
-258.471374511719
-204.826354980469
-167.372406005859
-130.893798828125
-85.4418563842773
-58.1316719055176
-60.1799354553223
-60.3750076293945
-54.912971496582
-67.3000869750977
-101.340278625488
-140.159759521484
-173.907333374023
-217.701156616211
-281.489929199219
-335.817687988281
-368.102233886719
-397.558227539063
-433.061462402344
-456.275115966797
-462.029754638672
-471.393249511719
-491.778350830078
-502.995025634766
-497.045318603516
-494.509368896484
-514.211730957031
-532.450988769531
-531.670715332031
-530.987976074219
-546.691284179687
-552.250915527344
-538.010559082031
-529.329833984375
-540.546508789063
-558.493225097656
-564.735534667969
-562.199584960937
-561.029174804687
-551.470581054687
-527.281555175781
-518.308227539063
-539.08349609375
-560.443969726562
-563.370056152344
-568.539428710937
-592.240783691406
-612.820983886719
-607.846618652344
-597.507751464844
-606.383544921875
-613.016052246094
-602.482116699219
-591.558044433594
-597.897888183594
-604.042724609375
-597.312683105469
-593.216186523437
-607.261413574219
-617.112548828125
-605.603271484375
-595.361938476563
-599.263427734375
-599.068359375
-588.7294921875
-587.656555175781
-597.702819824219
-599.263427734375
-586.388610839844
-578.878295898438
-588.241821289063
-597.020080566406
-589.997436523437
-586.778747558594
-595.947204589844
-600.23876953125
-587.754150390625
-571.075378417969
-572.343383789063
-575.171936035156
-562.297119140625
-550.105102539063
-549.519897460937
-541.326843261719
-518.7958984375
-499.386169433594
-490.022674560547
-481.634552001953
-468.564697265625
-463.882934570313
-470.808013916016
-477.050354003906
-480.26904296875
-477.050354003906
-493.338928222656
-517.137817382812
-531.085510253906
-550.98291015625
-585.803405761719
-610.870239257812
-611.552978515625
-610.382568359375
-622.964721679688
-631.547973632813
-628.4267578125
-625.988403320312
-637.59521484375
-648.129150390625
-636.522277832031
-625.695739746094
-629.889831542969
-633.986328125
-620.233703613281
-606.773742675781
-607.554016113281
-604.23779296875
-609.212097167969
-604.725463867187
-569.904968261719
-429.745208740234
-134.307571411133
239.744384765625
568.44189453125
717.282409667969
434.231872558594
-34.5278739929199
-454.129302978516
-687.2412109375
-728.986755371094
-685.680603027344
-649.49462890625
-628.621887207031
-606.383544921875
-588.924560546875
-580.536437988281
-571.855712890625
-553.811462402344
-543.862731933594
-549.032165527344
-553.908996582031
-542.594787597656
-534.889404296875
-540.058837890625
-542.009582519531
-531.963317871094
-521.429382324219
-531.183044433594
-537.035217285156
-520.649108886719
-507.774291992188
-510.797943115234
-507.481689453125
-487.974426269531
-469.14990234375
-463.005126953125
-449.447570800781
-415.895050048828
-381.854858398438
-359.9091796875
-329.282745361328
-278.076171875
-229.795669555664
-195.365341186523
-156.155715942383
-110.118553161621
-74.9079284667969
-58.2292098999023
-43.5012168884277
-18.7269821166992
-7.70537281036377
-26.1397457122803
-51.9868812561035
-76.468505859375
-110.313629150391
-167.469940185547
-219.94450378418
-263.640777587891
-299.826782226562
-347.912200927734
-389.657775878906
-411.896057128906
-436.085083007812
-468.36962890625
-486.901519775391
-488.657165527344
-495.387176513672
-513.919067382812
-525.233337402344
-518.990966796875
-513.919067382812
-527.96435546875
-539.961303710937
-534.011596679687
-528.3544921875
-534.791870117188
-535.377075195313
-519.771301269531
-512.163452148438
-523.5751953125
-531.183044433594
-519.18603515625
-507.969390869141
-518.7958984375
-526.013610839844
-522.697387695313
-525.818542480469
-545.42333984375
-555.469604492188
-545.42333984375
-535.669677734375
-542.887390136719
-545.325805664063
-535.962341308594
-526.501281738281
-530.500305175781
-535.864807128906
-532.255920410156
-529.329833984375
-542.692321777344
-554.299133300781
-548.934631347656
-546.691284179687
-562.979858398438
-570.197570800781
-555.079467773438
-544.740600585937
-553.128723144531
-560.736572265625
-552.738586425781
-547.569152832031
-562.589721679687
-571.855712890625
-558.980895996094
-549.324768066406
-555.274536132812
-556.737548828125
-542.594787597656
-538.498229980469
-551.860717773438
-561.029174804687
-550.397705078125
-531.573181152344
-518.503295898438
-490.705444335937
-450.520446777344
-422.039855957031
-414.724609375
-413.066497802734
-404.678375244141
-401.069519042969
-425.84375
-450.325378417969
-460.664245605469
-481.341949462891
-520.063903808594
-550.007568359375
-558.980895996094
-564.638000488281
-581.024108886719
-588.631958007812
-577.707885742188
-571.075378417969
-575.269470214844
-573.513793945313
-558.980895996094
-547.081481933594
-546.886413574219
-549.8125
-539.181030273438
-530.012573242188
-540.936645507812
-548.837097167969
-558.298156738281
-567.564086914063
-544.447998046875
-418.430999755859
-131.576553344727
247.74235534668
598.092956542969
791.410034179688
541.326843261719
77.1512603759766
-353.179168701172
-600.921508789063
-652.030578613281
-610.285034179688
-568.734558105469
-537.425354003906
-507.091552734375
-494.314300537109
-502.312255859375
-508.164459228516
-498.605895996094
-490.998046875
-496.265014648438
-502.312255859375
-498.215728759766
-494.216735839844
-503.872863769531
-511.870819091797
-505.140808105469
-500.361541748047
-511.285614013672
-513.62646484375
-496.655151367188
-486.316314697266
-493.729064941406
-496.460083007812
-481.439483642578
-466.711486816406
-463.492797851562
-456.665252685547
-432.183624267578
-399.606475830078
-377.368194580078
-347.619598388672
-302.557800292969
-259.641784667969
-231.45378112793
-197.413604736328
-149.913391113281
-112.947105407715
-99.2920150756836
-87.0024337768555
-67.4951629638672
-61.9355888366699
-81.2477874755859
-105.046661376953
-125.041618347168
-160.154708862305
-214.189849853516
-259.251647949219
-283.928344726562
-310.360717773438
-347.522064208984
-373.271667480469
-374.442108154297
-375.710083007812
-390.145446777344
-400.776916503906
-387.121826171875
-375.222381591797
-379.904144287109
-381.854858398438
-371.41845703125
-366.151519775391
-370.052947998047
-367.712097167969
-351.813659667969
-341.864959716797
-354.447143554687
-366.151519775391
-360.29931640625
-361.274688720703
-379.513977050781
-393.461700439453
-388.584869384766
-381.562255859375
-392.193725585937
-400.191711425781
-391.803558349609
-389.657775878906
-404.970977783203
-413.261566162109
-400.484313964844
-388.194732666016
-390.633117675781
-386.536590576172
-371.320922851562
-363.030334472656
-374.247009277344
-382.635162353516
-371.808624267578
-366.444122314453
-381.659790039063
-399.606475830078
-407.701995849609
-416.577819824219
-442.522491455078
-463.98046875
-468.954833984375
-474.70947265625
-491.193115234375
-499.288635253906
-489.730072021484
-482.902526855469
-493.729064941406
-505.335906982422
-508.457061767578
-515.479675292969
-536.450012207031
-547.861755371094
-539.571166992188
-526.208679199219
-524.453002929687
-518.113159179687
-506.896484375
-502.799957275391
-510.505310058594
-511.675750732422
-491.875885009766
-465.931213378906
-449.252471923828
-433.354064941406
-419.016204833984
-419.796508789063
-433.939270019531
-440.766815185547
-445.448577880859
-435.987548828125
-437.938262939453
-450.227844238281
-452.958862304687
-471.588317871094
-514.406799316406
-556.347412109375
-576.147277832031
-585.900939941406
-601.994445800781
-606.1884765625
-592.240783691406
-580.146301269531
-585.998474121094
-587.851684570312
-567.954223632812
-554.299133300781
-556.737548828125
-553.811462402344
-540.448974609375
-533.9140625
-541.326843261719
-543.082458496094
-543.082458496094
-553.518859863281
-538.108093261719
-436.962890625
-188.245178222656
180.929946899414
536.157409667969
823.694580078125
723.037048339844
295.535186767578
-178.003860473633
-489.632537841797
-586.876281738281
-561.516845703125
-523.770263671875
-493.241394042969
-460.761779785156
-438.523498535156
-442.424926757812
-443.790435791016
-426.038818359375
-410.433013916016
-410.530548095703
-408.677368164063
-394.046905517578
-384.585876464844
-392.778930664063
-403.410400390625
-403.60546875
-407.409393310547
-423.795501708984
-436.767822265625
-430.720581054687
-424.965942382812
-436.865356445313
-440.279144287109
-420.966949462891
-403.800537109375
-403.507934570313
-403.312866210937
-382.440063476562
-359.811645507812
-346.254089355469
-318.651306152344
-267.834838867187
-216.823333740234
-178.979232788086
-132.356842041016
-73.3473434448242
-34.7229461669922
-28.6756896972656
-27.1151084899902
-5.26696348190308
9.07088184356689
-5.85218191146851
-26.8225002288818
-47.1100616455078
-75.2980728149414
-126.407127380371
-179.369369506836
-221.602615356445
-266.56689453125
-320.406951904297
-371.515991210937
-399.996612548828
-421.064483642578
-455.787414550781
-474.026733398438
-469.442504882812
-468.857299804687
-486.316314697266
-497.532989501953
-486.803985595703
-477.635559082031
-485.4384765625
-486.901519775391
-469.832672119141
-456.080017089844
-465.833679199219
-471.490783691406
-460.664245605469
-448.862335205078
-451.983489990234
-452.178588867188
-440.279144287109
-430.525512695313
-426.526519775391
-429.452606201172
-417.163024902344
-406.336486816406
-416.285186767578
-415.11474609375
-394.046905517578
-384.585876464844
-395.607482910156
-405.556182861328
-401.264587402344
-401.849822998047
-417.748229980469
-429.160003662109
-416.967956542969
-408.677368164063
-426.428985595703
-440.961883544922
-438.133331298828
-438.816101074219
-454.421905517578
-468.076995849609
-463.492797851562
-459.396270751953
-473.051361083984
-481.732086181641
-475.099609375
-475.782379150391
-489.925140380859
-494.801971435547
-482.414855957031
-477.342956542969
-494.216735839844
-510.505310058594
-509.529968261719
-509.822570800781
-526.988952636719
-540.351440429687
-533.52392578125
-531.183044433594
-543.862731933594
-550.20263671875
-537.425354003906
-525.818542480469
-522.307250976562
-506.213714599609
-473.441497802734
-446.131317138672
-447.496826171875
-452.861328125
-443.790435791016
-442.815093994141
-465.248443603516
-476.074981689453
-472.271057128906
-472.758758544922
-497.435455322266
-524.843139648438
-541.716979980469
-557.030151367188
-584.047729492188
-608.626892089844
-608.236755371094
-605.700805664062
-614.576599121094
-619.746032714844
-608.431823730469
-601.506774902344
-602.872253417969
-599.946166992188
-580.829040527344
-569.514831542969
-580.438903808594
-585.218200683594
-572.44091796875
-563.174987792969
-587.851684570312
-602.091979980469
-549.324768066406
-399.313873291016
-127.870170593262
237.891189575195
597.410217285156
778.340148925781
492.168487548828
12.8747997283936
-394.827209472656
-616.13720703125
-678.560485839844
-646.861145019531
-592.045715332031
-555.079467773438
-547.861755371094
-548.934631347656
-535.669677734375
-528.647094726562
-545.520874023438
-556.444946289063
-545.033203125
-539.668701171875
-544.935668945313
-549.324768066406
-542.399719238281
-538.985961914063
-543.375061035156
-544.350463867188
-524.160400390625
-505.726043701172
-506.994018554687
-505.823577880859
-487.584289550781
-468.857299804687
-458.615966796875
-439.401306152344
-408.677368164063
-375.905151367188
-356.788024902344
-337.475830078125
-300.021850585937
-261.007293701172
-234.965103149414
-192.92692565918
-127.577560424805
-62.7158813476563
-17.4590091705322
24.8717727661133
74.0300979614258
113.142181396484
123.578575134277
120.945091247559
130.601196289062
130.015975952148
103.778686523438
69.4458923339844
38.9170074462891
7.02261829376221
-37.1613540649414
-79.3945999145508
-97.0486831665039
-110.703773498535
-144.646423339844
-178.784149169922
-197.608673095703
-216.628265380859
-252.814254760742
-280.026885986328
-280.124420166016
-281.489929199219
-300.997222900391
-316.505493164063
-314.359710693359
-320.016815185547
-342.255096435547
-360.591918945313
-360.006713867188
-362.932800292969
-384.683410644531
-395.412414550781
-387.70703125
-388.487335205078
-405.263580322266
-419.308837890625
-420.674346923828
-422.820129394531
-442.620025634766
-455.007141113281
-431.01318359375
-407.019256591797
-404.093139648438
-404.678375244141
-395.509948730469
-391.315887451172
-408.287200927734
-428.087097167969
-426.916656494141
-429.550140380859
-450.227844238281
-465.833679199219
-462.127288818359
-460.859313964844
-477.440490722656
-492.851226806641
-485.4384765625
-480.26904296875
-496.16748046875
-509.237335205078
-503.580230712891
-504.263000488281
-517.332885742188
-520.454040527344
-508.164459228516
-504.750671386719
-519.381103515625
-533.1337890625
-531.670715332031
-531.280578613281
-540.741577148438
-542.789855957031
-528.647094726562
-513.62646484375
-508.554595947266
-492.363555908203
-455.689880371094
-435.012176513672
-445.058410644531
-458.225830078125
-448.862335205078
-435.402313232422
-433.061462402344
-433.354064941406
-415.699981689453
-401.947357177734
-417.358093261719
-439.986541748047
-445.546112060547
-452.568725585937
-474.3193359375
-487.876892089844
-483.975433349609
-478.805999755859
-489.827606201172
-497.142852783203
-484.463104248047
-476.757751464844
-485.926147460937
-484.268035888672
-457.933227539063
-433.646667480469
-430.818115234375
-425.356079101562
-404.190673828125
-407.506927490234
-420.479248046875
-378.636169433594
-224.528701782227
68.8606719970703
440.961883544922
795.70166015625
993.50537109375
721.281372070312
234.574951171875
-193.512145996094
-423.893035888672
-478.123260498047
-465.248443603516
-443.302764892578
-417.260559082031
-400.289245605469
-405.848815917969
-412.968963623047
-402.532562255859
-393.364135742188
-399.606475830078
-401.752288818359
-385.658782958984
-373.466735839844
-383.415435791016
-390.242980957031
-379.318908691406
-373.564270019531
-384.000671386719
-395.802551269531
-390.535583496094
-385.756317138672
-400.679382324219
-410.725616455078
-400.191711425781
-393.949371337891
-401.752288818359
-401.167053222656
-379.416442871094
-352.691497802734
-334.842346191406
-313.872009277344
-271.931365966797
-229.600601196289
-205.996795654297
-178.10139465332
-133.624816894531
-92.8546142578125
-73.5424194335938
-58.4242820739746
-35.1130905151367
-21.3604640960693
-33.4549713134766
-49.7435455322266
-58.1316719055176
-79.4921340942383
-125.041618347168
-179.95458984375
-225.991744995117
-278.368774414062
-345.571319580078
-400.776916503906
-431.500854492188
-463.2001953125
-506.603881835937
-542.594787597656
-553.421325683594
-557.908020019531
-573.708862304687
-587.656555175781
-578.975830078125
-561.809448242188
-554.98193359375
-541.814514160156
-509.042266845703
-482.024719238281
-470.125274658203
-459.786407470703
-437.548126220703
-420.479248046875
-424.770874023438
-430.720581054687
-421.844757080078
-416.967956542969
-425.551147460937
-430.23291015625
-419.113739013672
-411.993591308594
-421.259552001953
-422.527526855469
-404.678375244141
-397.070526123047
-407.701995849609
-411.505920410156
-395.607482910156
-372.588897705078
-369.565277099609
-370.248046875
-355.422515869141
-345.181182861328
-344.888580322266
-342.060028076172
-326.551727294922
-317.285797119141
-330.453186035156
-340.109283447266
-334.354644775391
-335.134948730469
-358.836273193359
-377.465728759766
-375.710083007812
-381.562255859375
-409.1650390625
-433.061462402344
-437.450592041016
-440.181610107422
-456.860321044922
-466.809020996094
-456.957855224609
-445.838714599609
-451.495819091797
-453.153930664063
-437.743194580078
-426.819122314453
-432.671295166016
-430.915649414063
-398.43603515625
-367.907165527344
-365.07861328125
-356.397857666016
-336.988128662109
-325.673919677734
-341.669891357422
-347.522064208984
-342.937866210937
-352.203796386719
-383.220367431641
-415.017211914063
-438.621032714844
-468.564697265625
-503.580230712891
-524.550537109375
-527.671691894531
-533.036193847656
-553.518859863281
-566.783813476562
-564.638000488281
-561.32177734375
-567.856689453125
-579.268432617187
-572.635986328125
-564.638000488281
-574.294128417969
-584.828002929688
-577.317749023437
-571.270446777344
-594.191528320312
-631.255310058594
-617.210083007812
-522.697387695313
-307.824768066406
36.8687438964844
396.387786865234
693.5810546875
589.509765625
156.545867919922
-290.463287353516
-583.267456054687
-700.213562011719
-689.777160644531
-632.620849609375
-592.533386230469
-592.825988769531
-601.799377441406
-598.970825195313
-589.314697265625
-586.876281738281
-573.123657226562
-538.205627441406
-505.140808105469
-486.218780517578
-467.979461669922
-448.179595947266
-439.889007568359
-447.69189453125
-449.837707519531
-435.890014648438
-425.84375
-434.426971435547
-435.694946289063
-414.822143554687
-391.706024169922
-376.782958984375
-361.762359619141
-323.430572509766
-278.368774414062
-258.568908691406
-232.52668762207
-189.220550537109
-149.718322753906
-129.333221435547
-111.484062194824
-74.9079284667969
-33.8451194763184
-15.1181364059448
-7.90044546127319
15.8984270095825
41.452953338623
47.1100616455078
57.8390617370605
69.0557479858398
57.5464553833008
25.9446716308594
-11.8994359970093
-33.064826965332
-58.1316719055176
-110.313629150391
-169.908340454102
-206.094329833984
-229.015380859375
-260.422088623047
-285.488922119141
-299.241546630859
-310.068084716797
-326.161590576172
-336.402923583984
-338.256103515625
-340.889587402344
-355.422515869141
-360.494384765625
-342.060028076172
-326.454193115234
-324.405944824219
-325.088684082031
-316.700561523438
-315.237518310547
-331.916229248047
-342.157562255859
-334.257110595703
-325.673919677734
-333.28173828125
-340.109283447266
-332.989135742188
-330.550720214844
-340.987121582031
-344.303375244141
-332.794067382812
-325.966522216797
-337.768432617188
-348.985107421875
-343.718139648438
-344.108276367188
-360.884552001953
-372.491363525391
-365.371215820313
-361.177154541016
-371.906158447266
-377.563262939453
-369.955413818359
-368.297302246094
-381.75732421875
-391.413421630859
-383.512969970703
-376.392822265625
-381.854858398438
-384.293273925781
-379.123840332031
-377.075592041016
-392.778930664063
-405.751281738281
-392.486328125
-383.610504150391
-399.021270751953
-414.432006835937
-412.188659667969
-409.360107421875
-430.525512695313
-449.154937744141
-445.838714599609
-443.985534667969
-455.397277832031
-467.296722412109
-459.786407470703
-451.593353271484
-461.639617919922
-472.368591308594
-465.638580322266
-459.396270751953
-458.128295898438
-434.914642333984
-402.435028076172
-383.122833251953
-389.170074462891
-395.509948730469
-387.31689453125
-376.587890625
-385.073547363281
-401.069519042969
-409.067504882812
-432.866363525391
-477.928192138672
-512.748657226562
-524.843139648438
-527.866821289063
-541.0341796875
-547.179016113281
-539.4736328125
-534.011596679687
-548.837097167969
-561.419311523438
-553.811462402344
-547.179016113281
-557.127685546875
-566.783813476562
-558.103088378906
-552.250915527344
-557.712951660156
-557.517822265625
-549.032165527344
-562.687255859375
-557.810485839844
-476.172515869141
-245.401489257813
129.430755615234
508.847198486328
849.639282226563
847.298400878906
461.346984863281
-10.3388547897339
-338.256103515625
-465.736145019531
-459.591339111328
-428.379699707031
-403.020263671875
-375.710083007812
-365.85888671875
-373.564270019531
-379.416442871094
-372.588897705078
-368.882537841797
-382.732696533203
-399.606475830078
-401.752288818359
-405.751281738281
-420.771881103516
-427.111724853516
-415.11474609375
-409.067504882812
-420.966949462891
-429.452606201172
-420.381713867188
-414.822143554687
-423.697967529297
-421.942291259766
-403.312866210937
-386.634155273438
-386.731689453125
-381.074554443359
-353.764373779297
-324.601013183594
-304.801147460937
-274.272247314453
-228.137557983398
-185.709228515625
-154.887741088867
-121.725379943848
-75.4931411743164
-33.5525093078613
-12.3871183395386
5.94971799850464
28.8707637786865
38.2342529296875
22.0432186126709
-0.19507272541523
-13.947699546814
-46.4273071289063
-105.33927154541
-159.95964050293
-201.802734375
-245.303955078125
-296.510528564453
-348.887573242188
-385.171081542969
-416.285186767578
-458.713500976562
-488.657165527344
-486.023681640625
-471.490783691406
-461.054382324219
-444.668273925781
-411.408386230469
-387.999664306641
-386.048919677734
-387.31689453125
-378.246002197266
-371.613555908203
-384.390808105469
-396.192718505859
-390.438049316406
-389.560241699219
-403.703002929687
-414.139404296875
-408.969970703125
-401.069519042969
-402.532562255859
-399.411407470703
-380.001678466797
-361.177154541016
-359.421508789063
-354.73974609375
-343.718139648438
-335.720153808594
-342.547698974609
-343.62060546875
-331.038421630859
-321.967529296875
-325.088684082031
-329.185211181641
-317.675933837891
-309.677947998047
-315.139984130859
-314.262145996094
-300.899688720703
-295.632720947266
-312.408966064453
-322.845367431641
-321.089691162109
-324.991149902344
-342.645233154297
-357.080627441406
-356.885559082031
-359.226409912109
-375.8076171875
-390.828216552734
-385.073547363281
-372.783966064453
-379.123840332031
-383.903137207031
-370.735717773438
-363.615570068359
-371.0283203125
-384.976013183594
-384.390808105469
-377.368194580078
-376.97802734375
-369.565277099609
-335.232482910156
-303.728240966797
-297.583435058594
-298.168670654297
-284.123413085938
-280.709655761719
-288.512573242188
-298.461273193359
-307.532165527344
-326.746826171875
-370.833251953125
-420.186645507812
-448.959869384766
-470.612945556641
-493.729064941406
-509.725036621094
-512.84619140625
-516.357482910156
-536.937683105469
-555.274536132812
-554.201599121094
-553.128723144531
-566.10107421875
-575.171936035156
-568.344360351562
-562.297119140625
-572.343383789063
-580.438903808594
-574.586730957031
-580.731506347656
-615.259399414062
-616.332275390625
-537.327819824219
-337.475830078125
-10.3388547897339
354.837280273438
699.823425292969
725.182861328125
329.575378417969
-153.814849853516
-492.753692626953
-643.252319335938
-654.859130859375
-606.57861328125
-543.472595214844
-508.847198486328
-506.213714599609
-505.921112060547
-491.38818359375
-478.415863037109
-484.755737304687
-493.436462402344
-485.04833984375
-474.026733398438
-480.073974609375
-484.268035888672
-468.36962890625
-452.276123046875
-456.275115966797
-451.593353271484
-435.597381591797
-426.819122314453
-435.109710693359
-435.987548828125
-412.773895263672
-391.510955810547
-387.024291992188
-376.782958984375
-354.934814453125
-334.257110595703
-322.650299072266
-304.606048583984
-265.298919677734
-226.089294433594
-198.388961791992
-161.81282043457
-108.948120117187
-63.2035636901855
-38.9170074462891
-19.5072727203369
12.9723358154297
40.7701988220215
42.6233901977539
42.0381736755371
49.7435455322266
42.1357078552246
12.5821905136108
-22.2382907867432
-54.2302169799805
-87.5876541137695
-142.012939453125
-197.803741455078
-223.163192749023
-253.692077636719
-282.075164794922
-296.608093261719
-312.604034423828
-332.794067382812
-357.860900878906
-371.711090087891
-369.857879638672
-370.63818359375
-389.462707519531
-413.554168701172
-421.552154541016
-431.695953369141
-453.056396484375
-461.639617919922
-456.372650146484
-461.542053222656
-478.903533935547
-490.510375976562
-488.559631347656
-491.38818359375
-504.067932128906
-509.920104980469
-496.069946289063
-486.121246337891
-495.289642333984
-507.384155273438
-500.946746826172
-496.069946289063
-501.531982421875
-503.482696533203
-494.314300537109
-489.047332763672
-498.800964355469
-504.945739746094
-492.168487548828
-483.195129394531
-501.044281005859
-521.819519042969
-527.184020996094
-527.086486816406
-537.035217285156
-547.666687011719
-542.497253417969
-537.327819824219
-544.64306640625
-546.59375
-536.937683105469
-531.670715332031
-539.961303710937
-544.545532226562
-535.572143554687
-532.060852050781
-542.302185058594
-546.20361328125
-533.036193847656
-525.135803222656
-534.791870117188
-536.742614746094
-520.649108886719
-513.723999023438
-525.623474121094
-530.012573242188
-515.382141113281
-501.824584960937
-501.239379882812
-499.483703613281
-478.123260498047
-449.740173339844
-427.111724853516
-393.169067382812
-351.228454589844
-315.920288085937
-306.751861572266
-301.582427978516
-266.371795654297
-236.23307800293
-244.231048583984
-261.3974609375
-266.469329833984
-288.80517578125
-331.818695068359
-365.07861328125
-374.637176513672
-373.564270019531
-390.925750732422
-398.631103515625
-398.43603515625
-405.848815917969
-426.819122314453
-440.864349365234
-429.550140380859
-421.649688720703
-426.233917236328
-429.257537841797
-422.039855957031
-407.604461669922
-409.847808837891
-409.847808837891
-400.289245605469
-408.482299804687
-404.970977783203
-322.16259765625
-96.4634628295898
253.399475097656
593.021057128906
884.752319335938
826.230529785156
415.504913330078
-70.616325378418
-392.973999023438
-497.728057861328
-476.855285644531
-435.890014648438
-395.314880371094
-368.687438964844
-368.492370605469
-394.924743652344
-427.111724853516
-424.770874023438
-410.823150634766
-415.797515869141
-422.039855957031
-415.309844970703
-414.529541015625
-427.306793212891
-426.916656494141
-404.775909423828
-395.022277832031
-410.433013916016
-420.576782226562
-417.748229980469
-411.505920410156
-418.138397216797
-424.478240966797
-418.528533935547
-415.309844970703
-425.356079101562
-425.941284179687
-407.994598388672
-394.534576416016
-393.559234619141
-383.805572509766
-356.397857666016
-326.454193115234
-304.703582763672
-272.12646484375
-223.260726928711
-171.273849487305
-135.380477905273
-102.705787658691
-63.7887802124023
-35.6983070373535
-32.4796104431152
-35.9909172058105
-32.2845344543457
-47.2075996398926
-87.490119934082
-129.430755615234
-152.644409179687
-177.321105957031
-217.115936279297
-256.813232421875
-285.293853759766
-327.33203125
-377.465728759766
-403.800537109375
-403.60546875
-390.633117675781
-391.218353271484
-396.777923583984
-380.001678466797
-356.007720947266
-339.524078369141
-319.138977050781
-288.219940185547
-280.221984863281
-300.119384765625
-339.621612548828
-376.002685546875
-407.116790771484
-429.257537841797
-435.109710693359
-422.039855957031
-406.336486816406
-404.580841064453
-403.21533203125
-395.314880371094
-397.070526123047
-414.724609375
-431.4033203125
-420.479248046875
-407.311859130859
-410.725616455078
-410.335479736328
-391.218353271484
-383.610504150391
-399.606475830078
-416.285186767578
-413.846801757812
-410.725616455078
-416.090118408203
-411.213317871094
-396.485321044922
-384.390808105469
-393.949371337891
-413.066497802734
-417.358093261719
-416.772888183594
-435.304779052734
-448.959869384766
-448.569732666016
-453.153930664063
-470.027740478516
-480.26904296875
-470.808013916016
-465.541046142578
-485.243408203125
-501.531982421875
-502.799957275391
-502.604888916016
-521.721984863281
-539.4736328125
-541.0341796875
-539.668701171875
-547.569152832031
-548.154357910156
-532.548522949219
-518.503295898438
-519.673767089844
-515.382141113281
-491.973419189453
-469.5400390625
-464.663238525391
-463.297729492188
-447.106689453125
-434.134338378906
-443.010162353516
-439.693908691406
-395.217346191406
-355.812652587891
-343.913208007812
-343.815673828125
-330.648254394531
-321.674926757812
-325.771453857422
-331.331024169922
-327.136962890625
-325.966522216797
-349.765411376953
-379.904144287109
-387.219360351562
-391.803558349609
-415.602447509766
-432.281158447266
-426.916656494141
-431.500854492188
-453.056396484375
-466.321350097656
-463.395263671875
-458.908599853516
-471.880920410156
-486.999053955078
-478.805999755859
-464.273071289063
-472.466156005859
-483.292663574219
-477.440490722656
-471.490783691406
-497.630523681641
-508.359527587891
-460.664245605469
-302.362731933594
-19.4097366333008
349.862945556641
711.917907714844
863.391906738281
568.637023925781
100.852600097656
-282.660369873047
-481.537017822266
-543.082458496094
-529.232299804687
-489.535003662109
-469.247436523438
-480.366577148438
-497.532989501953
-498.020660400391
-498.800964355469
-514.504333496094
-515.089538574219
-497.728057861328
-489.730072021484
-495.387176513672
-490.2177734375
-475.879913330078
-462.127288818359
-464.565704345703
-475.392242431641
-465.736145019531
-450.520446777344
-451.690887451172
-447.3017578125
-431.598419189453
-420.381713867188
-414.724609375
-404.385772705078
-375.417449951172
-354.349609375
-360.104248046875
-362.054992675781
-340.109283447266
-310.360717773438
-285.001251220703
-246.279312133789
-188.732864379883
-137.136123657227
-105.046661376953
-75.8832931518555
-34.7229461669922
-1.0728999376297
6.6324725151062
11.0216093063354
21.5555362701416
21.3604640960693
-3.90145444869995
-44.2815093994141
-78.1266250610352
-119.677116394043
-182.783142089844
-246.181777954102
-288.219940185547
-330.258117675781
-382.927764892578
-418.333465576172
-419.601440429687
-419.50390625
-432.768829345703
-438.425964355469
-427.306793212891
-421.454620361328
-430.818115234375
-440.961883544922
-437.840728759766
-435.402313232422
-452.47119140625
-463.2001953125
-450.130310058594
-434.622039794922
-430.23291015625
-416.187652587891
-387.804565429687
-366.444122314453
-369.760345458984
-377.173126220703
-371.906158447266
-372.296295166016
-396.680389404297
-420.869415283203
-422.137390136719
-423.795501708984
-443.107696533203
-458.03076171875
-448.374664306641
-440.279144287109
-451.593353271484
-461.834686279297
-460.079010009766
-455.104675292969
-464.468170166016
-468.759765625
-454.519439697266
-441.254516601562
-439.889007568359
-435.597381591797
-424.965942382812
-424.965942382812
-445.058410644531
-449.350036621094
-427.014190673828
-410.433013916016
-420.2841796875
-430.037811279297
-415.11474609375
-406.629089355469
-420.186645507812
-433.158996582031
-427.599426269531
-417.650695800781
-430.623046875
-444.570739746094
-437.938262939453
-423.697967529297
-432.281158447266
-442.912628173828
-434.622039794922
-423.990570068359
-424.478240966797
-423.307800292969
-414.236938476562
-410.530548095703
-427.599426269531
-444.083068847656
-442.522491455078
-429.647674560547
-415.212310791016
-399.411407470703
-374.734710693359
-362.542663574219
-373.954406738281
-385.658782958984
-375.417449951172
-364.688446044922
-378.733703613281
-399.411407470703
-414.041870117188
-438.816101074219
-478.708465576172
-506.701416015625
-510.017639160156
-510.212707519531
-519.673767089844
-525.721008300781
-517.137817382812
-504.653137207031
-515.284606933594
-527.086486816406
-522.697387695313
-513.723999023438
-518.40576171875
-519.771301269531
-507.481689453125
-498.800964355469
-508.847198486328
-518.210693359375
-530.695373535156
-518.503295898438
-463.297729492188
-290.463287353516
45.9396286010742
433.549133300781
779.705688476563
850.712158203125
494.119201660156
20.87278175354
-362.347595214844
-559.761169433594
-575.464538574219
-524.843139648438
-487.584289550781
-463.785400390625
-439.108703613281
-421.454620361328
-425.45361328125
-430.818115234375
-417.260559082031
-405.263580322266
-412.578826904297
-420.966949462891
-416.187652587891
-408.872436523438
-420.2841796875
-427.111724853516
-408.189666748047
-388.097198486328
-388.487335205078
-382.927764892578
-356.300323486328
-334.062042236328
-331.721160888672
-329.282745361328
-306.751861572266
-278.076171875
-265.981658935547
-261.592529296875
-237.305969238281
-207.167236328125
-194.38996887207
-174.980239868164
-134.210037231445
-85.0517120361328
-50.4263000488281
-18.9220542907715
25.1643810272217
64.3740005493164
79.2970657348633
84.9541702270508
93.4398345947266
90.6112823486328
62.4232711791992
32.8697547912598
10.7290000915527
-23.0185813903809
-76.6635818481445
-127.089881896973
-159.764556884766
-188.147644042969
-231.648864746094
-276.222991943359
-305.581420898438
-330.550720214844
-363.030334472656
-382.440063476562
-379.709045410156
-371.906158447266
-375.8076171875
-379.709045410156
-375.222381591797
-375.710083007812
-402.239959716797
-428.867401123047
-435.694946289063
-441.254516601562
-460.274108886719
-476.855285644531
-471.978454589844
-463.492797851562
-469.344970703125
-474.416870117188
-465.541046142578
-457.055389404297
-463.395263671875
-475.197174072266
-471.783386230469
-464.955841064453
-468.759765625
-466.516418457031
-444.863342285156
-418.138397216797
-408.77490234375
-409.1650390625
-403.21533203125
-402.630096435547
-423.502899169922
-434.134338378906
-418.138397216797
-411.310852050781
-420.186645507812
-425.45361328125
-412.188659667969
-397.070526123047
-403.020263671875
-411.310852050781
-406.434020996094
-402.435028076172
-420.576782226562
-439.303771972656
-439.108703613281
-434.817108154297
-452.666259765625
-466.223815917969
-455.689880371094
-440.279144287109
-436.377685546875
-427.306793212891
-401.752288818359
-376.97802734375
-381.3671875
-383.122833251953
-369.467742919922
-362.737731933594
-377.368194580078
-396.192718505859
-396.582855224609
-401.557220458984
-422.332458496094
-439.206237792969
-440.766815185547
-445.546112060547
-467.784393310547
-478.610931396484
-465.248443603516
-453.25146484375
-464.078002929687
-467.296722412109
-436.1826171875
-391.998626708984
-372.393829345703
-364.493377685547
-359.128875732422
-356.397857666016
-364.395843505859
-357.665832519531
-348.985107421875
-354.447143554687
-375.8076171875
-403.21533203125
-431.891021728516
-456.275115966797
-486.511383056641
-505.921112060547
-501.434448242188
-490.022674560547
-503.580230712891
-523.5751953125
-531.378112792969
-541.131713867188
-564.735534667969
-579.1708984375
-568.149291992188
-559.273498535156
-575.074401855469
-585.413269042969
-570.685241699219
-553.421325683594
-567.759155273438
-600.62890625
-587.94921875
-512.4560546875
-332.403930664063
-15.215672492981
353.179168701172
694.556457519531
719.525756835938
332.208862304687
-141.037582397461
-491.38818359375
-660.2236328125
-675.536865234375
-624.037658691406
-578.195556640625
-562.004516601562
-550.300170898438
-527.476623535156
-511.188079833984
-516.259948730469
-517.2353515625
-500.264007568359
-484.755737304687
-486.999053955078
-491.290649414063
-481.634552001953
-473.636566162109
-481.341949462891
-487.779357910156
-480.756744384766
-475.879913330078
-485.633544921875
-497.045318603516
-496.265014648438
-488.852264404297
-493.631530761719
-494.801971435547
-475.977447509766
-449.350036621094
-435.402313232422
-410.433013916016
-359.031341552734
-310.555786132812
-272.711669921875
-228.8203125
-170.688629150391
-117.628852844238
-83.9788055419922
-52.8647079467773
-13.947699546814
23.3111915588379
36.9662818908691
36.0884552001953
45.1593360900879
48.9632530212402
26.1397457122803
-9.16841793060303
-40.380054473877
-84.8566360473633
-153.034545898438
-215.262756347656
-252.91178894043
-282.172698974609
-324.893615722656
-363.713104248047
-380.684417724609
-389.267608642578
-410.628082275391
-426.721588134766
-419.601440429687
-406.531555175781
-408.189666748047
-410.530548095703
-404.970977783203
-402.630096435547
-415.407379150391
-428.867401123047
-421.747222900391
-411.505920410156
-418.528533935547
-427.111724853516
-422.039855957031
-414.724609375
-428.769836425781
-440.669281005859
-434.914642333984
-436.475219726562
-451.300750732422
-457.250457763672
-450.520446777344
-445.155944824219
-461.151916503906
-476.074981689453
-471.880920410156
-460.859313964844
-469.442504882812
-478.415863037109
-473.92919921875
-476.465118408203
-499.483703613281
-515.479675292969
-506.116180419922
-498.313262939453
-507.871826171875
-515.382141113281
-504.458068847656
-489.535003662109
-492.948791503906
-495.484710693359
-485.82861328125
-480.464111328125
-493.729064941406
-504.750671386719
-498.508361816406
-492.363555908203
-504.458068847656
-518.40576171875
-519.478637695313
-517.137817382812
-532.353454589844
-543.277526855469
-531.183044433594
-514.504333496094
-513.333862304687
-508.261993408203
-485.340942382812
-467.394256591797
-466.126281738281
-467.296722412109
-459.396270751953
-453.544097900391
-466.321350097656
-474.611938476562
-465.053375244141
-451.495819091797
-463.59033203125
-485.145874023438
-482.414855957031
-471.490783691406
-468.272064208984
-453.446563720703
-416.187652587891
-386.829223632812
-385.853851318359
-397.265594482422
-394.437042236328
-385.073547363281
-385.171081542969
-390.828216552734
-392.193725585937
-406.531555175781
-450.422912597656
-497.630523681641
-521.039245605469
-532.938659667969
-547.569152832031
-556.737548828125
-546.691284179687
-539.86376953125
-549.227233886719
-556.054809570313
-540.936645507812
-527.379089355469
-523.18505859375
-522.989990234375
-506.116180419922
-487.486755371094
-489.144866943359
-494.899505615234
-486.023681640625
-477.440490722656
-503.190093994141
-518.600830078125
-472.953826904297
-319.138977050781
-31.6017818450928
340.011749267578
703.822387695313
849.054016113281
535.572143554687
60.8626899719238
-324.308410644531
-527.769287109375
-575.269470214844
-538.888427734375
-480.171508789063
-434.329437255859
-423.990570068359
-430.23291015625
-424.088104248047
-418.430999755859
-426.233917236328
-432.086090087891
-421.649688720703
-408.189666748047
-408.872436523438
-413.164031982422
-400.776916503906
-391.023284912109
-406.921691894531
-427.696960449219
-422.820129394531
-408.579833984375
-404.288238525391
-399.411407470703
-380.879486083984
-363.322937011719
-364.590911865234
-359.421508789063
-336.793060302734
-318.358673095703
-315.627655029297
-302.557800292969
-265.103820800781
-224.333633422852
-204.04606628418
-172.639358520508
-125.529296875
-72.1769104003906
-33.5525093078613
2.92609095573425
50.1336898803711
86.1246109008789
93.2447662353516
95.9757843017578
105.436805725098
99.3895568847656
71.4941558837891
35.7958450317383
5.26696348190308
-30.4313449859619
-84.3689575195313
-132.844528198242
-160.154708862305
-179.857055664062
-215.750427246094
-247.547286987305
-255.642807006836
-262.860504150391
-284.318511962891
-300.314453125
-291.146057128906
-280.124420166016
-288.4150390625
-296.705627441406
-289.975616455078
-283.148071289062
-298.266204833984
-316.017822265625
-313.969543457031
-306.946929931641
-310.458251953125
-316.115356445313
-317.773468017578
-314.944915771484
-328.502471923828
-340.499450683594
-330.550720214844
-313.774475097656
-308.214904785156
-313.286804199219
-303.923309326172
-297.583435058594
-310.068084716797
-317.383331298828
-312.701568603516
-302.460266113281
-311.336059570313
-314.554779052734
-301.094757080078
-287.634735107422
-287.439666748047
-290.560821533203
-273.296875
-263.933410644531
-278.076171875
-292.804168701172
-296.608093261719
-296.217926025391
-301.484893798828
-311.823760986328
-311.04345703125
-317.188262939453
-345.083648681641
-359.9091796875
-354.544677734375
-351.521057128906
-356.007720947266
-363.322937011719
-350.253082275391
-340.792053222656
-348.887573242188
-359.9091796875
-360.884552001953
-360.396850585937
-373.661804199219
-383.708038330078
-386.536590576172
-389.072540283203
-400.484313964844
-407.214324951172
-387.121826171875
-360.689483642578
-358.543670654297
-365.273681640625
-372.686431884766
-381.269653320313
-398.533569335937
-400.386779785156
-368.589904785156
-329.575378417969
-318.261138916016
-321.7724609375
-321.967529296875
-313.774475097656
-308.117370605469
-291.341125488281
-273.589508056641
-274.467315673828
-302.557800292969
-338.353637695313
-356.983093261719
-364.493377685547
-382.049926757812
-387.511962890625
-376.490356445313
-371.0283203125
-386.243988037109
-399.216339111328
-396.875457763672
-392.388793945313
-403.410400390625
-410.237945556641
-400.581848144531
-389.657775878906
-395.119812011719
-397.265594482422
-382.1474609375
-362.054992675781
-380.879486083984
-416.772888183594
-397.460662841797
-304.410980224609
-88.4654846191406
266.469329833984
649.006958007812
963.756774902344
843.104309082031
399.801544189453
-43.8913650512695
-334.842346191406
-456.860321044922
-456.080017089844
-411.115783691406
-371.41845703125
-361.957427978516
-356.690490722656
-337.865966796875
-332.013763427734
-349.277709960937
-355.422515869141
-335.915222167969
-306.751861572266
-304.606048583984
-316.115356445313
-316.798095703125
-315.627655029297
-319.626647949219
-318.163604736328
-299.144012451172
-281.099792480469
-297.290832519531
-340.792053222656
-382.927764892578
-412.383728027344
-412.091125488281
-375.027313232422
-318.261138916016
-279.539215087891
-266.664428710938
-251.448745727539
-219.651885986328
-183.856048583984
-151.571502685547
-118.701751708984
-67.7877731323242
-15.9959630966187
17.8491535186768
47.4026718139648
81.7354736328125
108.460433959961
116.360877990723
116.848564147949
123.090888977051
113.629859924316
77.3463363647461
29.8461265563965
-9.85117244720459
-49.8410797119141
-101.925498962402
-152.351791381836
-187.659957885742
-221.602615356445
-273.491973876953
-319.724182128906
-342.157562255859
-357.373229980469
-379.513977050781
-397.753295898438
-395.705017089844
-390.438049316406
-400.581848144531
-406.531555175781
-397.850830078125
-388.877471923828
-393.949371337891
-398.728637695313
-384.293273925781
-372.783966064453
-383.317901611328
-393.071533203125
-387.219360351562
-381.172119140625
-393.2666015625
-405.458648681641
-401.947357177734
-395.314880371094
-401.947357177734
-403.507934570313
-393.851837158203
-385.268646240234
-393.071533203125
-401.264587402344
-395.412414550781
-388.194732666016
-390.145446777344
-387.902099609375
-370.540649414063
-357.860900878906
-368.492370605469
-381.659790039063
-373.369201660156
-362.640197753906
-369.175140380859
-377.173126220703
-366.249053955078
-357.958465576172
-373.466735839844
-395.022277832031
-399.899078369141
-400.386779785156
-412.286193847656
-422.625061035156
-420.381713867188
-412.578826904297
-416.772888183594
-424.283172607422
-417.845764160156
-405.166046142578
-408.677368164063
-413.359100341797
-403.703002929687
-384.683410644531
-383.512969970703
-385.171081542969
-372.686431884766
-357.373229980469
-363.420501708984
-383.903137207031
-391.413421630859
-386.341522216797
-401.557220458984
-430.623046875
-439.889007568359
-434.426971435547
-433.939270019531
-434.329437255859
-433.354064941406
-440.864349365234
-463.297729492188
-473.831665039063
-451.690887451172
-425.258544921875
-416.577819824219
-414.529541015625
-395.900085449219
-360.396850585937
-332.794067382812
-310.750854492188
-278.271240234375
-263.640777587891
-279.344146728516
-307.532165527344
-312.116363525391
-314.944915771484
-340.889587402344
-358.348602294922
-360.884552001953
-367.029327392578
-388.389801025391
-415.699981689453
-424.965942382812
-423.112731933594
-432.671295166016
-446.814086914063
-453.25146484375
-455.884948730469
-473.051361083984
-485.633544921875
-479.293701171875
-474.221801757812
-483.390228271484
-501.044281005859
-498.215728759766
-482.317321777344
-484.658172607422
-492.851226806641
-504.360534667969
-498.215728759766
-454.714508056641
-295.632720947266
16.9713268280029
372.686431884766
687.436279296875
793.458312988281
480.659210205078
18.6294460296631
-375.417449951172
-583.852661132813
-604.042724609375
-550.300170898438
-510.602844238281
-481.927154541016
-444.570739746094
-414.529541015625
-404.190673828125
-401.459655761719
-396.875457763672
-384.195739746094
-377.855865478516
-391.218353271484
-389.657775878906
-394.827209472656
-421.844757080078
-444.863342285156
-445.448577880859
-436.475219726562
-443.595367431641
-458.323364257812
-453.446563720703
-437.353057861328
-429.647674560547
-427.696960449219
-414.236938476562
-401.264587402344
-398.43603515625
-390.438049316406
-367.712097167969
-348.009735107422
-341.767425537109
-329.380310058594
-289.487915039063
-237.403503417969
-201.705200195313
-164.153701782227
-109.923477172852
-63.7887802124023
-46.524845123291
-37.1613540649414
-23.5062637329102
-20.9703178405762
-40.380054473877
-61.0577621459961
-64.8616790771484
-75.8832931518555
-115.678123474121
-162.983261108398
-191.951568603516
-229.405517578125
-293.389373779297
-347.619598388672
-369.662811279297
-385.853851318359
-418.626068115234
-450.910614013672
-466.613952636719
-467.881927490234
-472.466156005859
-479.196136474609
-473.051361083984
-462.614959716797
-473.246429443359
-478.708465576172
-457.152923583984
-444.570739746094
-451.983489990234
-459.103668212891
-445.838714599609
-428.282165527344
-435.109710693359
-444.180603027344
-427.892028808594
-403.60546875
-378.831237792969
-374.051940917969
-369.857879638672
-360.396850585937
-370.248046875
-368.199768066406
-360.982086181641
-360.982086181641
-362.152526855469
-380.586883544922
-378.538635253906
-373.661804199219
-386.048919677734
-377.465728759766
-351.521057128906
-338.938873291016
-353.95947265625
-380.196746826172
-393.071533203125
-392.291259765625
-400.971984863281
-417.163024902344
-419.308837890625
-428.867401123047
-450.715545654297
-469.930206298828
-464.468170166016
-453.641632080078
-462.127288818359
-466.906555175781
-460.371643066406
-461.932220458984
-472.271057128906
-471.100646972656
-453.739166259766
-432.183624267578
-431.695953369141
-440.084075927734
-432.866363525391
-416.090118408203
-420.479248046875
-429.257537841797
-427.111724853516
-422.137390136719
-430.427978515625
-445.058410644531
-438.523498535156
-431.305786132812
-443.985534667969
-453.739166259766
-442.327392578125
-433.939270019531
-447.886962890625
-462.127288818359
-457.250457763672
-443.010162353516
-441.35205078125
-448.472198486328
-444.083068847656
-431.793487548828
-433.061462402344
-429.842742919922
-397.558227539063
-360.104248046875
-349.18017578125
-350.545684814453
-341.962493896484
-335.134948730469
-346.546691894531
-352.496429443359
-348.692504882812
-353.95947265625
-381.269653320313
-417.358093261719
-437.645660400391
-445.546112060547
-459.591339111328
-472.953826904297
-469.637573242188
-462.907562255859
-476.074981689453
-483.585296630859
-470.222808837891
-452.47119140625
-451.788421630859
-458.908599853516
-451.300750732422
-441.254516601562
-447.984527587891
-452.47119140625
-447.3017578125
-430.525512695313
-433.451599121094
-459.591339111328
-395.900085449219
-240.232055664062
27.7978630065918
393.851837158203
732.888244628906
955.953918457031
727.426208496094
259.251647949219
-175.662994384766
-433.646667480469
-532.353454589844
-530.012573242188
-489.144866943359
-448.667266845703
-441.937255859375
-451.105682373047
-451.983489990234
-448.374664306641
-459.591339111328
-468.36962890625
-459.981475830078
-454.324371337891
-467.589324951172
-483.000061035156
-478.123260498047
-465.053375244141
-473.343963623047
-471.490783691406
-455.397277832031
-444.473205566406
-458.128295898438
-471.393249511719
-466.321350097656
-459.981475830078
-468.36962890625
-476.660217285156
-462.614959716797
-442.229858398438
-435.499847412109
-426.526519775391
-401.362121582031
-359.811645507812
-328.502471923828
-290.268218994141
-228.625228881836
-166.98225402832
-126.212051391602
-92.269401550293
-52.377025604248
-19.1171264648438
-9.26595401763916
-2.43840909004211
12.192045211792
19.7998809814453
1.56058180332184
-27.7978630065918
-52.9622459411621
-81.345329284668
-134.990325927734
-192.049102783203
-231.06364440918
-266.274261474609
-316.407958984375
-362.932800292969
-385.366180419922
-404.190673828125
-430.915649414063
-454.421905517578
-455.104675292969
-447.69189453125
-455.397277832031
-459.591339111328
-453.934234619141
-448.277130126953
-454.714508056641
-467.784393310547
-465.833679199219
-460.176544189453
-466.418884277344
-466.906555175781
-447.204223632812
-431.305786132812
-441.059417724609
-450.910614013672
-445.058410644531
-440.766815185547
-446.033782958984
-455.299743652344
-448.082061767578
-440.279144287109
-455.494812011719
-469.344970703125
-467.296722412109
-460.956848144531
-470.905548095703
-482.707458496094
-477.440490722656
-466.711486816406
-474.3193359375
-484.755737304687
-473.148895263672
-461.932220458984
-463.492797851562
-469.442504882812
-463.492797851562
-458.908599853516
-470.710479736328
-482.707458496094
-474.3193359375
-465.638580322266
-478.415863037109
-495.387176513672
-499.483703613281
-495.77734375
-502.409790039063
-505.140808105469
-494.216735839844
-483.877899169922
-500.361541748047
-517.820556640625
-514.406799316406
-510.602844238281
-521.234313964844
-532.841125488281
-530.207641601562
-525.721008300781
-533.036193847656
-540.936645507812
-531.475646972656
-522.794921875
-530.30517578125
-538.400695800781
-527.379089355469
-502.312255859375
-481.439483642578
-457.835693359375
-424.673309326172
-401.654754638672
-405.751281738281
-411.408386230469
-399.801544189453
-374.734710693359
-380.294281005859
-398.533569335937
-411.408386230469
-432.671295166016
-478.025726318359
-517.2353515625
-528.3544921875
-530.402709960937
-549.032165527344
-566.296142578125
-561.614379882812
-552.445983886719
-565.906005859375
-581.414245605469
-574.781799316406
-559.663635253906
-563.662658691406
-573.123657226562
-565.125671386719
-549.032165527344
-545.715942382812
-542.399719238281
-543.472595214844
-535.279541015625
-495.192108154297
-357.373229980469
-59.3996467590332
326.161590576172
675.244262695313
846.322998046875
574.099060058594
113.044647216797
-312.116363525391
-557.32275390625
-612.723449707031
-573.026123046875
-541.814514160156
-524.257934570313
-504.458068847656
-489.632537841797
-493.533996582031
-501.922119140625
-488.364562988281
-469.930206298828
-469.832672119141
-477.440490722656
-468.272064208984
-453.25146484375
-452.958862304687
-452.276123046875
-440.961883544922
-434.231872558594
-445.741180419922
-457.738159179687
-454.909606933594
-440.766815185547
-441.35205078125
-446.228851318359
-434.719573974609
-416.967956542969
-407.409393310547
-398.826171875
-374.051940917969
-344.0107421875
-326.844360351562
-307.434600830078
-261.592529296875
-208.045059204102
-163.861083984375
-120.457405090332
-58.5218162536621
-5.07189083099365
12.3871183395386
14.8255271911621
30.8214912414551
47.2075996398926
39.9899101257324
19.8974170684814
0.682754516601562
-28.3830814361572
-82.5157623291016
-140.062210083008
-184.343719482422
-226.381896972656
-278.46630859375
-323.333038330078
-348.887573242188
-371.0283203125
-408.969970703125
-437.157989501953
-442.327392578125
-442.034790039063
-461.151916503906
-481.146881103516
-483.682830810547
-478.903533935547
-489.632537841797
-504.360534667969
-500.264007568359
-487.974426269531
-494.021667480469
-508.066925048828
-504.458068847656
-495.387176513672
-501.72705078125
-511.578216552734
-509.432434082031
-508.554595947266
-517.918090820313
-524.257934570313
-516.747619628906
-510.310241699219
-526.403747558594
-538.400695800781
-527.476623535156
-509.822570800781
-513.236328125
-525.916076660156
-521.429382324219
-511.578216552734
-518.7958984375
-529.232299804687
-520.161437988281
-501.629516601562
-500.946746826172
-498.118194580078
-467.686859130859
-440.669281005859
-440.474212646484
-444.863342285156
-439.498840332031
-428.184631347656
-438.718566894531
-451.300750732422
-450.715545654297
-453.348999023438
-472.758758544922
-490.998046875
-491.485717773438
-488.169494628906
-498.703430175781
-508.847198486328
-503.287628173828
-494.899505615234
-507.28662109375
-519.18603515625
-513.821533203125
-504.067932128906
-508.749664306641
-514.211730957031
-495.77734375
-477.440490722656
-477.830627441406
-475.684844970703
-459.786407470703
-437.450592041016
-435.402313232422
-440.766815185547
-428.964935302734
-415.212310791016
-413.651702880859
-401.167053222656
-370.052947998047
-349.862945556641
-352.496429443359
-363.615570068359
-359.128875732422
-356.885559082031
-361.859893798828
-371.320922851562
-373.856872558594
-373.759338378906
-407.604461669922
-457.055389404297
-480.854278564453
-486.999053955078
-505.628509521484
-526.403747558594
-523.380126953125
-516.552551269531
-527.476623535156
-541.912048339844
-533.621459960937
-519.381103515625
-520.844177246094
-525.721008300781
-512.84619140625
-504.263000488281
-512.358520507812
-515.869812011719
-504.458068847656
-511.383148193359
-538.595825195313
-524.940673828125
-406.141418457031
-146.207000732422
208.532745361328
550.007568359375
803.894714355469
620.331237792969
163.178329467773
-287.537200927734
-547.179016113281
-612.430847167969
-586.291076660156
-542.204650878906
-498.118194580078
-469.442504882812
-466.321350097656
-468.467163085937
-463.102661132812
-455.007141113281
-458.128295898438
-461.932220458984
-452.0810546875
-442.424926757812
-447.69189453125
-455.202209472656
-453.641632080078
-451.008148193359
-462.322357177734
-474.416870117188
-469.637573242188
-460.469177246094
-464.078002929687
-471.783386230469
-462.614959716797
-449.350036621094
-448.179595947266
-445.253509521484
-418.235931396484
-384.488342285156
-372.198760986328
-359.811645507812
-328.892608642578
-288.317474365234
-258.568908691406
-224.528701782227
-168.445297241211
-107.680145263672
-70.421257019043
-42.9160003662109
-11.2166814804077
13.460018157959
16.6787185668945
11.0216093063354
9.75363636016846
2.43840909004211
-25.7495994567871
-67.2025527954102
-99.9747695922852
-130.308578491211
-177.126037597656
-230.575958251953
-270.663421630859
-297.485900878906
-329.575378417969
-363.030334472656
-379.513977050781
-386.146453857422
-406.336486816406
-423.307800292969
-419.698974609375
-412.968963623047
-421.552154541016
-426.624053955078
-411.018218994141
-393.2666015625
-395.314880371094
-401.752288818359
-395.119812011719
-386.146453857422
-391.120819091797
-392.486328125
-383.122833251953
-376.587890625
-383.903137207031
-395.509948730469
-396.290252685547
-388.584869384766
-393.2666015625
-400.581848144531
-394.729644775391
-383.805572509766
-391.608489990234
-401.849822998047
-391.023284912109
-377.368194580078
-376.490356445313
-382.049926757812
-374.344573974609
-366.346588134766
-378.733703613281
-392.778930664063
-386.634155273438
-373.954406738281
-385.463714599609
-405.263580322266
-402.142425537109
-395.802551269531
-400.289245605469
-408.77490234375
-398.0458984375
-386.634155273438
-402.435028076172
-419.211273193359
-406.921691894531
-385.561248779297
-387.024291992188
-401.557220458984
-402.239959716797
-398.338500976562
-411.896057128906
-423.210266113281
-412.773895263672
-397.948364257812
-406.434020996094
-419.016204833984
-417.163024902344
-408.77490234375
-417.650695800781
-430.427978515625
-427.989562988281
-423.600433349609
-438.328399658203
-458.908599853516
-465.833679199219
-460.956848144531
-466.906555175781
-475.489776611328
-467.784393310547
-449.935241699219
-442.424926757812
-428.282165527344
-390.828216552734
-352.886566162109
-341.962493896484
-348.7900390625
-344.986114501953
-343.23046875
-346.741760253906
-358.738739013672
-365.07861328125
-376.19775390625
-406.336486816406
-441.547119140625
-459.591339111328
-469.247436523438
-488.657165527344
-512.553588867188
-518.308227539063
-520.258972167969
-536.059875488281
-553.128723144531
-547.374084472656
-536.645080566406
-537.522888183594
-538.400695800781
-522.502319335937
-502.799957275391
-506.408782958984
-507.189086914063
-495.484710693359
-497.532989501953
-525.330871582031
-519.381103515625
-411.408386230469
-150.303527832031
218.4814453125
580.243835449219
864.562316894531
721.183837890625
273.199340820313
-190.293441772461
-469.930206298828
-559.468566894531
-546.008544921875
-505.726043701172
-462.810028076172
-438.718566894531
-437.060455322266
-442.620025634766
-430.818115234375
-412.871429443359
-407.311859130859
-391.998626708984
-354.057006835937
-308.897674560547
-286.561828613281
-277.978637695313
-255.545272827148
-232.429153442383
-231.551330566406
-240.036987304687
-225.016387939453
-217.018402099609
-234.477416992187
-253.692077636719
-263.738311767578
-268.907745361328
-276.515594482422
-281.294860839844
-269.785583496094
-249.693084716797
-248.425109863281
-239.549301147461
-205.411575317383
-165.714279174805
-141.915405273438
-115.190444946289
-71.7867660522461
-18.2392997741699
29.3584461212158
65.251823425293
100.852600097656
131.966705322266
140.940048217773
140.354827880859
140.744964599609
125.821907043457
81.6379318237305
27.5052547454834
-9.26595401763916
-44.1839714050293
-105.241737365723
-171.761535644531
-217.018402099609
-243.450759887695
-274.272247314453
-307.922302246094
-324.796081542969
-329.477844238281
-341.084655761719
-356.007720947266
-354.544677734375
-349.960479736328
-366.053955078125
-384.098205566406
-389.950378417969
-396.192718505859
-415.11474609375
-435.79248046875
-438.328399658203
-430.135345458984
-435.499847412109
-448.374664306641
-445.058410644531
-437.157989501953
-449.154937744141
-457.347991943359
-445.643646240234
-430.525512695313
-429.842742919922
-433.158996582031
-422.234924316406
-404.385772705078
-399.216339111328
-400.874450683594
-390.340515136719
-376.97802734375
-380.294281005859
-385.366180419922
-369.467742919922
-349.960479736328
-340.596984863281
-338.646240234375
-326.064056396484
-312.408966064453
-321.674926757812
-333.476837158203
-330.843353271484
-327.33203125
-337.183197021484
-351.325988769531
-347.034393310547
-339.621612548828
-355.422515869141
-373.856872558594
-371.515991210937
-364.298309326172
-371.808624267578
-383.317901611328
-381.854858398438
-374.832244873047
-382.927764892578
-399.704010009766
-395.314880371094
-387.511962890625
-396.777923583984
-406.531555175781
-395.705017089844
-385.658782958984
-394.729644775391
-407.116790771484
-395.705017089844
-372.296295166016
-353.179168701172
-330.160583496094
-299.5341796875
-280.221984863281
-284.02587890625
-292.511566162109
-282.465301513672
-262.372802734375
-269.492980957031
-291.048492431641
-298.753875732422
-311.336059570313
-344.595977783203
-381.3671875
-393.559234619141
-390.633117675781
-403.507934570313
-423.405364990234
-426.526519775391
-427.404327392578
-439.206237792969
-447.106689453125
-428.574768066406
-401.849822998047
-398.240966796875
-400.581848144531
-383.025299072266
-355.617584228516
-351.130920410156
-357.958465576172
-368.980072021484
-354.934814453125
-292.316467285156
-126.797271728516
200.242156982422
600.921508789063
955.466186523437
1055.9287109375
712.503112792969
236.428146362305
-155.277893066406
-364.883544921875
-388.584869384766
-334.159576416016
-294.267211914063
-274.272247314453
-259.739318847656
-251.838882446289
-264.226013183594
-274.077178955078
-271.151092529297
-264.713684082031
-273.004272460938
-281.685028076172
-273.394439697266
-262.860504150391
-269.688049316406
-284.220947265625
-284.708648681641
-272.321533203125
-275.150085449219
-280.026885986328
-272.028930664062
-255.155120849609
-254.472366333008
-261.690063476562
-249.888168334961
-228.332626342773
-231.648864746094
-240.719741821289
-229.795669555664
-211.653900146484
-204.436218261719
-189.610687255859
-151.376434326172
-101.827964782715
-69.7385025024414
-46.4273071289063
-1.26797270774841
50.3287620544434
76.0783615112305
89.1482391357422
112.55696105957
132.259307861328
126.504661560059
105.436805725098
81.8330078125
48.5731086730957
-5.26696348190308
-59.2045707702637
-97.3412933349609
-133.722351074219
-185.806777954102
-246.474395751953
-282.270233154297
-302.460266113281
-334.257110595703
-369.565277099609
-378.733703613281
-375.027313232422
-391.998626708984
-414.529541015625
-418.430999755859
-421.844757080078
-445.741180419922
-464.858306884766
-457.933227539063
-445.936248779297
-454.226837158203
-461.737152099609
-449.447570800781
-437.157989501953
-441.35205078125
-450.910614013672
-452.666259765625
-456.275115966797
-472.758758544922
-486.511383056641
-479.196136474609
-464.175537109375
-467.004119873047
-467.686859130859
-443.010162353516
-419.406372070313
-414.139404296875
-404.775909423828
-380.684417724609
-357.763366699219
-357.470764160156
-360.982086181641
-346.059020996094
-329.965515136719
-333.28173828125
-337.378265380859
-324.601013183594
-306.849395751953
-312.994201660156
-328.600006103516
-327.917236328125
-323.625640869141
-327.917236328125
-337.475830078125
-327.624633789063
-306.459259033203
-320.992156982422
-341.572357177734
-342.547698974609
-343.132934570313
-356.105255126953
-370.443115234375
-372.101226806641
-366.053955078125
-374.539642333984
-391.901092529297
-387.414428710937
-374.539642333984
-376.782958984375
-388.487335205078
-388.682403564453
-387.219360351562
-396.095153808594
-409.847808837891
-409.360107421875
-399.118804931641
-399.899078369141
-399.899078369141
-369.760345458984
-324.210876464844
-298.851409912109
-293.486907958984
-283.830810546875
-277.003265380859
-292.218933105469
-306.264190673828
-303.728240966797
-311.531127929687
-335.330017089844
-364.590911865234
-391.998626708984
-416.480255126953
-449.642639160156
-476.367584228516
-484.268035888672
-484.658172607422
-501.531982421875
-525.330871582031
-528.159423828125
-522.892456054687
-535.864807128906
-551.080444335937
-540.156372070313
-524.550537109375
-526.598815917969
-532.548522949219
-520.454040527344
-503.872863769531
-513.723999023438
-552.250915527344
-540.64404296875
-455.494812011719
-253.497009277344
87.2950439453125
470.417877197266
823.597045898438
834.423583984375
447.3017578125
-15.8984270095825
-345.571319580078
-493.046325683594
-491.778350830078
-430.623046875
-372.003692626953
-358.153533935547
-366.736724853516
-360.104248046875
-344.888580322266
-344.791046142578
-347.326995849609
-337.378265380859
-335.720153808594
-352.789031982422
-363.713104248047
-367.029327392578
-372.393829345703
-389.170074462891
-415.895050048828
-429.062469482422
-421.844757080078
-424.185638427734
-430.818115234375
-423.990570068359
-412.188659667969
-411.700988769531
-411.798522949219
-396.192718505859
-372.881500244141
-365.46875
-356.592956542969
-325.576385498047
-281.392395019531
-245.10888671875
-212.239120483398
-160.544845581055
-107.094924926758
-71.9818344116211
-31.6017818450928
19.604808807373
62.3257369995117
70.908935546875
61.1553001403809
59.3021087646484
56.2784805297852
32.1870002746582
-8.77827262878418
-47.5002098083496
-86.904899597168
-143.963668823242
-211.263763427734
-261.299926757813
-300.021850585937
-351.423522949219
-400.776916503906
-420.479248046875
-427.989562988281
-449.350036621094
-472.856292724609
-479.391235351562
-481.634552001953
-495.582244873047
-513.138793945313
-506.798950195313
-491.193115234375
-495.679809570313
-506.408782958984
-502.604888916016
-497.630523681641
-508.457061767578
-520.551574707031
-514.504333496094
-501.922119140625
-509.042266845703
-522.989990234375
-522.989990234375
-515.772277832031
-524.648071289063
-541.521911621094
-537.913024902344
-525.233337402344
-526.598815917969
-525.623474121094
-513.528930664063
-497.728057861328
-506.603881835937
-526.598815917969
-526.793884277344
-511.675750732422
-511.090545654297
-515.967346191406
-510.017639160156
-501.629516601562
-510.505310058594
-522.892456054687
-521.039245605469
-515.577209472656
-525.818542480469
-539.571166992188
-536.254943847656
-530.207641601562
-537.815490722656
-542.302185058594
-528.842163085937
-511.968353271484
-511.480682373047
-516.064880371094
-503.677764892578
-488.364562988281
-490.60791015625
-498.605895996094
-492.656158447266
-467.296722412109
-455.592346191406
-448.862335205078
-427.989562988281
-407.311859130859
-411.603454589844
-426.038818359375
-423.893035888672
-427.892028808594
-440.571746826172
-451.398284912109
-442.13232421875
-432.086090087891
-442.034790039063
-455.397277832031
-455.982482910156
-452.861328125
-467.296722412109
-480.073974609375
-471.880920410156
-452.763793945313
-437.645660400391
-420.576782226562
-388.877471923828
-361.177154541016
-365.371215820313
-381.269653320313
-378.831237792969
-358.446136474609
-366.834259033203
-389.755310058594
-399.801544189453
-404.288238525391
-430.818115234375
-463.005126953125
-480.26904296875
-489.925140380859
-500.068939208984
-514.796936035156
-521.721984863281
-526.891418457031
-540.546508789063
-550.105102539063
-540.351440429687
-524.550537109375
-524.843139648438
-531.475646972656
-521.429382324219
-501.629516601562
-500.654144287109
-511.285614013672
-532.841125488281
-531.573181152344
-486.803985595703
-334.354644775391
-20.4826354980469
363.615570068359
707.723876953125
815.013854980469
485.82861328125
13.3624820709229
-389.657775878906
-600.141235351562
-623.745056152344
-568.734558105469
-526.891418457031
-513.62646484375
-504.750671386719
-497.045318603516
-510.115173339844
-523.282592773438
-518.893432617188
-512.260986328125
-518.600830078125
-523.867797851562
-515.577209472656
-507.969390869141
-516.357482910156
-531.475646972656
-527.281555175781
-518.698364257812
-523.087524414063
-531.670715332031
-522.989990234375
-505.335906982422
-493.338928222656
-482.122253417969
-458.03076171875
-433.158996582031
-420.869415283203
-410.433013916016
-388.584869384766
-359.51904296875
-336.695526123047
-308.995208740234
-250.083236694336
-185.319091796875
-141.232650756836
-101.632888793945
-50.1336898803711
2.3408727645874
30.1387367248535
43.7938270568848
60.9602279663086
69.8360366821289
58.9119644165039
32.6746826171875
9.36349105834961
-15.4107456207275
-54.912971496582
-100.462455749512
-129.333221435547
-155.472961425781
-201.510131835938
-251.546279907227
-277.881103515625
-287.537200927734
-306.556793212891
-327.429565429687
-331.721160888672
-338.743774414063
-350.545684814453
-359.128875732422
-354.349609375
-333.964508056641
-325.478851318359
-313.969543457031
-275.442687988281
-237.403503417969
-217.798690795898
-218.286376953125
-237.69612121582
-240.817276000977
-250.66845703125
-264.226013183594
-256.22802734375
-256.130493164062
-271.346160888672
-296.608093261719
-302.850402832031
-297.973602294922
-311.726226806641
-332.013763427734
-332.989135742188
-326.551727294922
-338.548706054687
-349.960479736328
-349.5703125
-346.156555175781
-350.058013916016
-358.251068115234
-352.496429443359
-340.694519042969
-344.595977783203
-352.593963623047
-336.597991943359
-316.505493164063
-322.552764892578
-343.815673828125
-355.812652587891
-350.155548095703
-368.297302246094
-396.680389404297
-403.117797851562
-398.533569335937
-396.972991943359
-410.335479736328
-405.458648681641
-400.094146728516
-407.897064208984
-416.480255126953
-411.896057128906
-407.116790771484
-416.870422363281
-429.062469482422
-422.234924316406
-404.288238525391
-408.872436523438
-418.918670654297
-412.773895263672
-404.190673828125
-411.213317871094
-423.405364990234
-416.675354003906
-392.778930664063
-382.830230712891
-387.219360351562
-381.074554443359
-376.100219726562
-396.582855224609
-424.673309326172
-425.746215820313
-425.551147460937
-443.985534667969
-471.978454589844
-493.631530761719
-508.359527587891
-522.989990234375
-524.35546875
-503.287628173828
-476.660217285156
-466.711486816406
-465.345977783203
-451.203216552734
-430.037811279297
-426.624053955078
-430.037811279297
-423.015197753906
-413.359100341797
-416.480255126953
-427.599426269531
-422.722595214844
-410.042877197266
-406.921691894531
-424.673309326172
-423.015197753906
-369.272674560547
-234.3798828125
44.2815093994141
438.425964355469
814.526184082031
1006.38018798828
720.403564453125
239.061630249023
-182.295455932617
-435.304779052734
-512.553588867188
-472.661224365234
-412.773895263672
-384.878479003906
-380.294281005859
-375.612518310547
-375.319915771484
-389.950378417969
-403.60546875
-394.339508056641
-385.561248779297
-396.777923583984
-410.042877197266
-406.726623535156
-398.143432617188
-405.946350097656
-418.430999755859
-415.602447509766
-398.826171875
-399.313873291016
-404.483306884766
-393.169067382812
-379.123840332031
-377.758331298828
-378.050933837891
-357.373229980469
-331.428558349609
-319.919281005859
-311.531127929687
-288.512573242188
-262.665435791016
-245.401489257813
-218.383911132813
-168.737915039062
-113.434791564941
-70.1286468505859
-34.3327980041504
13.1674089431763
59.8873252868652
78.1266250610352
84.9541702270508
99.8772354125977
109.43579864502
92.0743255615234
57.3513793945313
25.8471355438232
-2.63348174095154
-51.4991989135742
-112.849571228027
-158.301513671875
-196.2431640625
-246.669464111328
-295.242584228516
-321.38232421875
-340.304382324219
-370.345581054687
-394.241973876953
-395.705017089844
-392.193725585937
-400.289245605469
-407.897064208984
-405.458648681641
-400.484313964844
-414.236938476562
-434.719573974609
-433.061462402344
-425.84375
-438.230865478516
-452.568725585937
-446.716552734375
-431.988555908203
-433.256530761719
-441.644653320313
-443.302764892578
-441.449584960937
-451.398284912109
-462.517425537109
-454.031768798828
-445.838714599609
-459.688873291016
-478.318328857422
-472.953826904297
-452.568725585937
-446.716552734375
-448.667266845703
-438.621032714844
-429.745208740234
-437.353057861328
-447.886962890625
-435.597381591797
-416.967956542969
-416.772888183594
-426.136383056641
-422.429992675781
-409.55517578125
-409.262573242188
-416.285186767578
-410.140411376953
-403.703002929687
-424.770874023438
-455.982482910156
-466.516418457031
-468.857299804687
-483.390228271484
-499.678771972656
-491.193115234375
-468.076995849609
-457.543090820313
-453.836700439453
-444.278137207031
-430.915649414063
-432.183624267578
-441.7421875
-434.622039794922
-415.602447509766
-415.212310791016
-421.162017822266
-408.872436523438
-390.145446777344
-382.049926757812
-373.369201660156
-342.742767333984
-304.703582763672
-283.538208007813
-265.981658935547
-235.842926025391
-211.263763427734
-213.604629516602
-238.671478271484
-249.498016357422
-250.278305053711
-256.130493164062
-273.882110595703
-280.904724121094
-290.853424072266
-329.380310058594
-378.636169433594
-411.798522949219
-437.645660400391
-460.859313964844
-479.683837890625
-472.368591308594
-452.47119140625
-442.717559814453
-444.083068847656
-435.987548828125
-428.184631347656
-436.377685546875
-443.400299072266
-433.646667480469
-420.089111328125
-419.601440429687
-428.477233886719
-430.818115234375
-447.69189453125
-478.513397216797
-467.784393310547
-339.621612548828
-53.4499282836914
326.649291992188
674.073791503906
897.529602050781
680.316101074219
206.191864013672
-243.158157348633
-489.242401123047
-545.42333984375
-529.719970703125
-501.239379882812
-471.100646972656
-450.910614013672
-453.641632080078
-464.370635986328
-455.299743652344
-434.719573974609
-427.306793212891
-430.037811279297
-416.577819824219
-396.972991943359
-395.119812011719
-398.728637695313
-388.292266845703
-369.857879638672
-367.907165527344
-368.394836425781
-351.228454589844
-322.747833251953
-315.335052490234
-313.384338378906
-296.608093261719
-277.978637695313
-276.613128662109
-280.319519042969
-278.856475830078
-273.589508056641
-284.903717041016
-284.708648681641
-253.204391479492
-204.241149902344
-165.324127197266
-134.210037231445
-85.6369247436523
-22.4333629608154
18.5319080352783
54.7178993225098
103.583618164062
139.769607543945
143.573532104492
135.478012084961
136.941055297852
135.575546264648
109.43579864502
72.0793685913086
42.6233901977539
9.46102714538574
-41.3554191589355
-103.778686523438
-155.472961425781
-189.025466918945
-234.574951171875
-287.634735107422
-312.701568603516
-319.431579589844
-350.740753173828
-387.609497070313
-396.777923583984
-393.949371337891
-403.410400390625
-405.263580322266
-393.656768798828
-370.833251953125
-360.006713867188
-353.569305419922
-330.258117675781
-317.383331298828
-325.966522216797
-338.256103515625
-332.013763427734
-321.7724609375
